bar,baseline,winner,runner_up1,mid_range
0,1.000000,1.000000,1.000000,1.000000
1,1.001067,1.005451,1.005451,1.005451
2,1.040407,0.993838,0.993838,0.993838
3,1.001666,1.014672,1.014672,1.014672
4,1.001666,1.014672,1.014672,1.014672
5,1.030722,1.014672,1.014672,1.014672
6,1.025585,1.014672,1.014672,1.035004
7,1.081888,1.014672,1.014672,1.013174
8,1.080049,0.967373,0.967373,1.013174
9,1.130321,0.998694,0.998694,1.047158
10,1.108050,1.024455,1.024455,1.028888
11,1.116710,1.014778,1.014778,1.020166
12,1.116710,1.007463,1.007463,1.012812
13,1.140177,0.993709,1.007463,0.998986
14,1.175922,0.993709,1.044037,1.033869
15,1.221624,1.019845,1.097033,1.073374
16,1.158894,1.072687,1.035650,1.062264
17,1.154635,1.072687,1.035650,1.057028
18,1.140384,1.063311,1.035650,1.057028
19,1.171010,1.063311,1.035650,1.057028
20,1.191842,1.063311,1.035650,1.057028
21,1.226607,1.070049,1.042213,1.101005
22,1.207709,1.070049,1.042213,1.101005
23,1.207709,1.070049,1.042213,1.085128
24,1.229601,1.070049,1.042213,1.085128
25,1.206545,1.093328,1.064887,1.085128
26,1.221005,1.101693,1.073033,1.104432
27,1.201776,1.101693,1.073033,1.104432
28,1.174524,1.121292,1.092123,1.135390
29,1.174524,1.121292,1.102817,1.121604
30,1.226505,1.126215,1.096136,1.109936
31,1.216081,1.137244,1.096136,1.032866
32,1.199089,1.097558,1.069006,1.007302
33,1.180013,1.021347,1.069006,0.984976
34,1.178425,1.021347,1.069006,0.984976
35,1.193516,1.021347,1.069006,0.977989
36,1.260719,1.001967,1.069006,0.979219
37,1.281868,1.001967,1.069006,0.972694
38,1.263805,1.001967,1.069006,0.972694
39,1.263805,0.995291,1.061883,0.975876
40,1.263805,0.995291,1.061883,1.002190
41,1.247580,0.995291,1.061883,0.988580
42,1.247580,1.033883,1.074095,1.023659
43,1.255664,1.033883,1.097393,1.071687
44,1.255664,1.048469,1.112875,1.070327
45,1.255664,1.048469,1.112875,1.121168
46,1.255664,1.048469,1.112875,1.118370
47,1.255664,1.012905,1.075127,1.118370
48,1.233334,1.010705,1.072791,1.104011
49,1.349091,1.044360,1.108514,1.140774
50,1.349091,1.044360,1.108514,1.148166
51,1.349091,1.028207,1.091369,1.130407
52,1.349091,1.009923,1.071961,1.110305
53,1.328573,1.009923,1.071961,1.110305
54,1.328573,1.011193,1.071961,1.110305
55,1.372496,1.035169,1.071961,1.120773
56,1.382655,1.073612,1.071961,1.120773
57,1.581349,1.077123,1.071961,1.141114
58,1.581349,1.039675,0.987773,1.109601
59,1.546903,1.037080,0.987773,1.078894
60,1.546903,1.037080,0.989015,1.078894
61,1.532833,1.023766,1.012466,1.078894
62,1.329519,1.013962,1.040009,1.078894
63,1.452858,1.020532,1.043411,1.078894
64,1.425715,1.020532,1.043411,1.078894
65,1.423189,1.020532,1.043411,1.142124
66,1.430497,1.020532,1.049853,1.127322
67,1.430497,1.073268,1.104104,1.119940
68,1.430497,1.065908,1.104104,1.109753
69,1.430497,1.065908,1.104104,1.026594
70,1.445028,1.065908,1.104104,1.026594
71,1.445028,1.147047,1.188150,1.167817
72,1.585030,1.278376,1.324186,1.311158
73,1.632440,1.351656,1.400092,1.467083
74,2.125735,1.351656,1.390491,1.467083
75,2.194477,1.351656,1.390491,1.763938
76,2.157382,1.351656,1.390491,1.763938
77,2.122199,1.351656,1.390491,1.763938
78,2.152889,1.351656,1.390491,1.789218
79,2.113203,1.351656,1.390491,1.789218
80,2.134520,1.351656,1.372639,1.789218
81,2.134520,1.339362,1.372639,1.742259
82,2.134520,1.309684,1.381534,1.742259
83,2.134520,1.309684,1.381534,1.922032
84,2.249984,1.343647,1.381534,1.928631
85,2.304774,1.343647,1.381534,1.894293
86,1.788065,1.343647,1.381534,1.894293
87,1.566783,1.343647,1.381534,1.871004
88,1.601095,1.343647,1.545828,1.880096
89,1.601095,1.343360,1.545497,1.880096
90,1.681264,1.343360,1.545497,1.920414
91,1.425116,1.343360,1.545497,1.920414
92,1.425116,1.308097,1.504928,1.968889
93,1.425116,1.580424,1.818233,2.057892
94,1.425116,1.580424,1.818233,2.249549
95,1.425116,1.580424,1.818233,2.249549
96,1.425116,1.580424,1.818233,2.249549
97,1.415982,1.580424,1.818233,2.249549
98,1.415982,1.580424,1.818233,2.245051
99,1.415982,1.580424,1.818233,2.183876
100,1.377750,1.558589,1.776802,2.183876
101,1.377750,1.558589,1.746165,2.183876
102,1.377750,1.558589,1.746165,2.183876
103,1.356944,1.536576,1.721503,2.148627
104,1.356944,1.536576,1.721503,2.148627
105,1.356944,1.536576,1.721503,2.159868
106,1.356944,1.495167,1.695793,2.159868
107,1.356944,1.636973,1.695793,2.159868
108,1.356944,1.660646,1.720317,2.135673
109,1.379380,1.660646,1.720317,2.251200
110,1.379380,1.660646,1.720317,2.251200
111,1.379380,1.660646,1.720317,2.194416
112,1.379380,1.660646,1.699335,2.078545
113,1.375612,1.660646,1.860505,1.524611
114,1.390074,1.660646,1.860505,1.512285
115,1.390074,1.660646,1.860505,1.512285
116,1.390074,1.660646,1.860505,1.529353
117,1.390074,1.660646,1.860505,1.220281
118,1.399978,1.660646,1.860505,0.999241
119,1.388613,1.815307,2.033779,0.999241
120,1.388613,1.815307,2.033779,0.999241
121,1.388613,1.815307,2.033779,0.999241
122,1.000000,1.815307,2.033779,0.984759
123,1.000000,1.841632,2.067406,0.984759
124,1.000000,1.791449,2.067406,0.984759
125,1.000000,1.791449,2.067406,0.984759
126,1.000000,1.888355,2.067406,0.984759
127,1.000000,1.888355,2.067406,0.984759
128,1.000000,1.840724,2.067406,0.984759
129,1.000000,1.782677,2.067406,0.984759
130,1.000000,1.509227,2.036186,0.984759
131,1.000000,1.509227,2.036186,0.984759
132,1.000000,1.476246,1.991689,0.984759
133,1.000000,1.347674,1.836921,0.984759
134,1.000000,1.333413,1.915797,1.000000
135,1.000000,1.333413,1.915797,1.000000
136,1.000000,1.168040,1.635865,1.000000
137,1.000000,1.168040,1.584277,1.000000
138,1.000000,1.168040,1.232684,1.000000
139,1.000000,1.168040,1.232684,1.000000
140,1.000000,1.168040,1.232684,1.000000
141,1.000000,1.168040,1.232684,1.000000
142,1.000000,1.168040,1.232684,1.000000
143,1.000000,1.168040,1.232684,1.000000
144,1.000000,1.168040,1.232684,1.000000
145,1.000000,1.168040,1.232684,1.000000
146,1.000000,1.168040,1.232684,1.000000
147,1.000000,1.110666,1.232684,1.000000
148,1.000000,1.110666,1.232684,1.000000
149,1.000000,1.110666,1.232684,1.000000
150,1.000000,1.063359,1.186273,1.000000
151,1.000000,1.063359,1.186273,1.000000
152,1.000000,1.040008,1.186273,1.000000
153,1.000000,1.000000,1.186273,1.000000
154,1.000000,1.000000,1.186273,1.000000
155,1.000000,1.000000,1.186273,1.000000
156,1.000000,1.000000,1.186273,1.000000
157,1.000000,1.000000,1.083927,1.000000
158,1.000000,1.000000,1.060124,1.000000