em,runs_pass,runs_total,pass_pct,avg_sharpe,avg_ret_pct,avg_dd,total_trades
0.94,42,54,77.78,5.3447,72.9772,28.25,486
1.07,41,54,75.93,7.8590,91.9088,24.77,428
1.08,41,54,75.93,7.8423,91.7266,24.84,427
1.09,41,54,75.93,7.4184,88.9512,25.22,427
1.10,41,54,75.93,7.4184,88.9512,25.22,427
1.15,41,54,75.93,6.2475,78.7479,24.41,418
0.95,41,54,75.93,5.2724,77.6430,29.04,479
0.91,41,54,75.93,5.2687,74.1981,28.27,490
0.88,41,54,75.93,5.2058,75.5114,28.64,497
0.92,41,54,75.93,5.1843,73.0103,28.57,490
0.90,41,54,75.93,5.1015,73.3797,28.43,492
0.89,41,54,75.93,5.0726,73.1611,28.45,495
0.93,41,54,75.93,4.9264,71.2416,29.09,490
1.16,40,54,74.07,6.7656,72.9872,24.23,412
0.87,40,54,74.07,4.9663,73.8397,28.86,505
0.86,40,54,74.07,4.8830,72.0885,28.86,508
0.84,40,54,74.07,4.8039,70.1479,28.80,512
0.83,40,54,74.07,4.8022,68.7117,27.90,512
0.85,40,54,74.07,4.7894,70.0041,28.86,512
0.04,40,54,74.07,3.3858,105.8219,34.78,712
0.01,40,54,74.07,3.1994,105.9797,35.40,721
0.02,40,54,74.07,3.1509,105.6421,35.33,715
0.00,40,54,74.07,3.1471,105.3297,35.41,721
0.03,40,54,74.07,3.0730,102.1058,35.47,714
1.05,39,54,72.22,7.7446,91.6825,25.12,431
1.06,39,54,72.22,7.7446,91.6825,25.12,431
1.04,39,54,72.22,7.6719,90.0625,27.24,437
1.20,39,54,72.22,7.4168,76.9164,23.49,397
1.17,39,54,72.22,6.7912,73.4698,23.72,409
1.03,39,54,72.22,6.2483,76.0397,29.00,453
1.11,39,54,72.22,6.1000,83.3315,25.57,427
1.00,39,54,72.22,5.8860,76.7062,28.95,456
0.99,39,54,72.22,5.7036,77.0530,29.01,462
1.01,39,54,72.22,5.6271,75.9778,29.03,456
1.02,39,54,72.22,5.6271,75.9778,29.03,456
0.98,39,54,72.22,5.2072,76.4627,29.52,467
0.97,39,54,72.22,5.1792,75.8320,29.64,470
0.96,39,54,72.22,5.1161,75.2896,29.68,476
0.24,39,54,72.22,4.5646,105.6758,32.93,667
0.25,39,54,72.22,4.5403,106.0799,32.93,667
0.26,39,54,72.22,4.3293,99.6948,33.19,662
0.82,39,54,72.22,4.2628,65.8652,29.21,518
0.81,39,54,72.22,4.2308,65.6246,29.39,520
0.79,39,54,72.22,3.7675,57.1216,30.63,528
0.80,39,54,72.22,3.7278,57.2425,30.88,528
0.06,39,54,72.22,3.4004,104.3214,34.56,709
0.05,39,54,72.22,3.3755,103.9801,34.86,711
1.14,38,54,70.37,5.8007,78.5732,26.52,423
1.13,38,54,70.37,5.6794,78.3167,26.52,425
1.12,38,54,70.37,5.5449,77.0656,26.74,427
0.23,38,54,70.37,4.2461,99.9340,33.36,670
1.28,37,54,68.52,15.4205,67.1470,22.93,366
1.29,37,54,68.52,14.7895,60.3093,23.79,366
1.30,37,54,68.52,14.7781,59.8016,23.79,366
1.26,37,54,68.52,7.7465,69.1466,22.82,371
1.27,37,54,68.52,7.5413,68.2593,22.88,371
1.25,37,54,68.52,7.4125,68.0766,23.36,379
1.19,37,54,68.52,6.8799,75.1860,23.91,405
1.18,37,54,68.52,6.6051,70.5964,24.14,408
0.08,37,54,68.52,4.5296,112.0860,32.39,696
0.09,37,54,68.52,4.4306,108.4440,32.81,696
0.11,37,54,68.52,4.3238,107.7358,33.06,693
0.10,37,54,68.52,4.2982,107.5681,33.24,696
0.12,37,54,68.52,4.2298,108.4478,32.83,684
0.07,37,54,68.52,4.1066,107.5849,33.82,701
0.13,37,54,68.52,4.0372,103.3442,33.38,684
0.21,37,54,68.52,3.9654,86.9690,33.99,676
0.22,37,54,68.52,3.9605,86.9212,34.06,675
0.14,37,54,68.52,3.9012,95.5575,33.34,680
0.15,37,54,68.52,3.8334,94.1401,33.70,680
0.16,37,54,68.52,3.6228,87.8560,33.87,680
0.75,37,54,68.52,3.3026,52.0091,32.27,536
0.74,37,54,68.52,3.2762,51.4964,32.53,537
0.78,37,54,68.52,3.1721,50.0285,32.95,530
1.31,36,54,66.67,14.5932,59.4946,24.06,366
0.70,36,54,66.67,4.5296,72.3309,31.67,541
0.27,36,54,66.67,4.1816,98.8386,33.43,659
0.28,36,54,66.67,4.1301,98.6699,33.49,659
0.29,36,54,66.67,3.9880,94.2648,33.94,657
0.30,36,54,66.67,3.9839,96.1920,34.03,657
0.32,36,54,66.67,3.9607,93.8843,34.25,656
0.31,36,54,66.67,3.9547,96.0426,34.08,657
0.34,36,54,66.67,3.8268,89.4542,34.35,656
0.33,36,54,66.67,3.8100,90.7777,34.43,656
0.71,36,54,66.67,3.7393,54.5843,33.19,544
0.17,36,54,66.67,3.5738,87.0543,34.31,681
0.19,36,54,66.67,3.4711,85.1150,34.49,680
0.18,36,54,66.67,3.4653,85.0750,34.53,681
0.76,36,54,66.67,3.3179,50.3459,32.40,530
0.44,36,54,66.67,3.3127,70.6337,35.60,625
0.72,36,54,66.67,3.2554,51.3832,33.59,544
0.77,36,54,66.67,3.1409,49.7855,32.95,530
1.35,35,54,64.81,14.7126,66.7809,24.43,346
1.32,35,54,64.81,14.1504,59.4129,25.10,364
1.36,35,54,64.81,13.6099,65.2196,24.68,346
1.38,35,54,64.81,10.1001,64.5012,24.87,337
1.39,35,54,64.81,10.1001,64.5012,24.87,337
1.22,35,54,64.81,6.7914,67.6177,23.63,392
1.21,35,54,64.81,6.6997,67.1171,23.94,394
0.35,35,54,64.81,3.7228,88.7277,34.74,656
0.57,35,54,64.81,3.6097,55.9491,33.28,584
0.20,35,54,64.81,3.4740,84.9385,34.61,681
0.45,35,54,64.81,3.1083,63.8942,36.06,625
0.73,35,54,64.81,3.0712,48.5602,33.66,544
1.37,34,54,62.96,10.3634,63.9787,25.41,346
1.40,34,54,62.96,10.0750,64.2057,25.00,337
0.64,34,54,62.96,3.5017,56.0406,34.40,575
1.33,33,54,61.11,14.1874,58.7635,25.33,358
1.34,33,54,61.11,14.1813,58.7825,25.32,351
1.23,33,54,61.11,6.4347,65.6125,23.41,386
1.24,33,54,61.11,6.4347,65.6125,23.41,386
0.69,33,54,61.11,4.0552,69.1584,32.97,551
0.38,33,54,61.11,3.7202,86.9607,34.83,648
0.65,33,54,61.11,3.6902,63.5735,34.40,572
0.40,33,54,61.11,3.6721,87.5922,34.83,644
0.66,33,54,61.11,3.6430,62.8266,34.57,572
0.39,33,54,61.11,3.6387,86.4656,34.83,647
0.37,33,54,61.11,3.6184,88.2129,35.01,650
0.36,33,54,61.11,3.6029,88.0214,35.07,655
0.41,33,54,61.11,3.4584,81.4395,35.16,642
0.63,33,54,61.11,3.3629,55.0973,35.59,580
0.42,33,54,61.11,3.3151,68.7441,35.14,631
0.58,33,54,61.11,3.2812,53.1695,34.93,584
0.43,33,54,61.11,3.2385,65.5108,35.69,628
0.59,33,54,61.11,3.1893,52.5204,35.37,584
0.60,33,54,61.11,3.1862,52.2944,35.41,584
0.61,33,54,61.11,3.1573,51.7572,35.69,584
0.46,33,54,61.11,2.9119,56.7604,36.10,621
0.51,33,54,61.11,2.8854,55.8786,36.49,613
0.50,33,54,61.11,2.8586,55.5752,36.52,617
0.55,32,54,59.26,3.5232,54.9756,33.77,595
0.54,32,54,59.26,3.4387,54.9100,34.15,597
0.53,32,54,59.26,3.2980,59.1247,34.41,599
0.62,32,54,59.26,3.2931,54.8881,36.10,582
0.56,32,54,59.26,3.1568,51.3541,34.52,594
0.52,32,54,59.26,2.9118,56.5876,35.65,611
0.48,32,54,59.26,2.7954,54.4119,37.03,617
0.49,32,54,59.26,2.7751,54.1969,37.15,617
0.68,31,54,57.41,2.9926,46.7634,35.45,559
0.67,31,54,57.41,2.7221,45.0179,36.20,570
0.47,31,54,57.41,2.6665,52.7407,37.03,623
1.41,27,54,50.00,7.6772,59.5149,25.83,329
1.42,27,54,50.00,7.1280,59.0622,26.13,329
1.49,25,54,46.30,9.1815,57.1363,23.98,304
1.50,25,54,46.30,9.1815,57.1363,23.98,304
1.51,25,54,46.30,9.1691,57.0859,23.98,303
1.43,25,54,46.30,7.0749,55.6793,26.15,323
1.46,24,54,44.44,8.7063,55.9684,24.95,312
1.47,24,54,44.44,8.7063,55.9684,24.95,312
1.45,24,54,44.44,8.4780,52.9079,25.60,315
1.44,24,54,44.44,6.9121,52.2905,26.19,321
1.48,23,54,42.59,8.4293,55.2120,25.59,312
1.55,23,54,42.59,-7.8902,44.4890,23.37,288
1.56,23,54,42.59,-8.1887,41.5910,23.52,286
1.57,23,54,42.59,-8.1887,41.5910,23.52,286
1.52,22,54,40.74,-5.2701,56.7121,23.50,297
1.53,22,54,40.74,-7.7841,51.3251,23.80,291
1.54,22,54,40.74,-7.7841,51.3251,23.80,291
1.59,21,54,38.89,6255330765471590.0000,39.8397,23.52,277
1.60,21,54,38.89,6255330765471590.0000,27.4716,23.52,277
1.61,21,54,38.89,6255330765471589.0000,26.7214,23.72,271
1.62,21,54,38.89,6255330765471589.0000,26.7214,23.72,271
1.63,21,54,38.89,6255330765471589.0000,26.2180,23.84,271
1.64,21,54,38.89,6255330765471589.0000,26.2180,23.84,271
1.65,21,54,38.89,6255330765471589.0000,26.2180,23.84,271
1.66,21,54,38.89,6255330765471589.0000,30.6019,22.57,265
1.67,21,54,38.89,6255330765471589.0000,30.6019,22.57,265
1.68,21,54,38.89,6255330765471576.0000,29.5603,23.56,265
1.69,21,54,38.89,6255330765471576.0000,29.5603,23.56,265
1.70,21,54,38.89,6255330765471576.0000,29.5603,23.56,265
1.58,21,54,38.89,-8.4302,40.2323,23.52,283
1.71,21,54,38.89,-22.0450,28.9197,24.15,265
1.79,20,54,37.04,-21.5771,37.7361,23.00,258
1.78,20,54,37.04,-21.8536,34.0483,23.45,259
1.73,20,54,37.04,-22.0870,26.8073,24.15,261
1.74,20,54,37.04,-22.0870,26.8073,24.15,261
1.75,20,54,37.04,-22.0870,26.8073,24.15,261
1.76,20,54,37.04,-22.0870,26.8073,24.15,261
1.77,20,54,37.04,-22.0870,26.8073,24.15,261
1.72,20,54,37.04,-22.0917,28.6245,24.15,264
1.85,19,54,35.19,-29.9208,21.6775,23.76,251
1.82,19,54,35.19,-30.0964,20.8548,24.29,258
1.83,19,54,35.19,-30.0964,20.8548,24.29,258
1.84,19,54,35.19,-30.0964,20.8548,24.29,258
1.80,19,54,35.19,-30.2563,35.4815,24.29,258
1.81,19,54,35.19,-30.2563,35.4815,24.29,258
1.95,18,54,33.33,4174342426282607.0000,25.8833,18.70,219
1.96,18,54,33.33,4174342426282607.0000,25.8833,18.70,219
1.93,18,54,33.33,4174342426282596.0000,24.1631,20.42,225
1.94,18,54,33.33,4174342426282596.0000,24.1631,20.42,225
2.00,17,54,31.48,4174342426282623.0000,20.3693,18.50,214
1.99,17,54,31.48,4174342426282622.0000,20.3070,18.50,216
1.98,17,54,31.48,4174342426282621.0000,20.2727,18.80,218
1.97,17,54,31.48,4174342426282606.0000,19.4728,19.21,219
1.89,17,54,31.48,4174342426282596.0000,29.8787,21.84,237
1.90,17,54,31.48,4174342426282596.0000,29.1604,22.22,237
1.91,17,54,31.48,4174342426282596.0000,29.9131,21.57,233
1.92,17,54,31.48,4174342426282596.0000,29.9131,21.57,233
1.87,17,54,31.48,4174342426282595.5000,21.8781,22.82,240
1.88,17,54,31.48,4174342426282595.5000,27.7701,22.13,238
1.86,17,54,31.48,-30.2085,20.9426,23.80,246
