atr_entry_mult,bar,mean_equity
0.00,0,1.00000000
0.00,2,1.01445399
0.00,4,0.99842876
0.00,6,1.07188519
0.00,8,1.14769655
0.00,10,1.19741443
0.00,12,1.20633031
0.00,14,1.13670541
0.00,16,1.11918733
0.00,18,1.12886407
0.00,20,1.13392127
0.00,22,1.20002289
0.00,24,1.24569625
0.00,26,1.31104566
0.00,28,1.30620468
0.00,30,1.43143685
0.00,32,1.39619147
0.00,34,1.40004198
0.00,36,1.40808667
0.00,38,1.43804104
0.00,40,1.46787480
0.00,42,1.36454892
0.00,44,1.33331478
0.00,46,1.34252650
0.00,48,1.35616253
0.00,50,1.37509757
0.00,52,1.44091535
0.00,54,1.43968415
0.00,56,1.43316766
0.00,58,1.45337850
0.00,60,1.40118545
0.00,62,1.29268228
0.00,64,1.35446263
0.00,66,1.37646387
0.00,68,1.42957916
0.00,70,1.45479073
0.00,72,1.61172279
0.00,74,1.62380334
0.00,76,1.63065311
0.00,78,1.65452197
0.00,80,1.75027422
0.00,82,1.67566971
0.00,84,1.68020317
0.00,86,1.71593731
0.00,88,1.85141730
0.00,90,1.85532996
0.00,92,1.85615704
0.00,94,1.86255432
0.00,96,1.90200837
0.00,98,1.76976134
0.00,100,1.77547150
0.00,102,1.85490963
0.00,104,1.83170656
0.00,106,1.88721714
0.00,108,2.00387130
0.00,110,1.77009302
0.00,112,1.75400086
0.00,114,1.64487191
0.00,116,1.66309570
0.00,118,1.66309570
0.00,120,1.90132296
0.00,122,1.75034815
0.00,124,1.73556440
0.00,126,1.80515236
0.00,128,1.90248253
0.00,130,2.06642917
0.00,132,2.06118515
0.00,134,2.07114230
0.00,136,1.18750257
0.00,138,1.09559382
0.00,140,1.09833236
0.00,142,1.21766833
0.00,144,1.20589571
0.00,146,1.25673482
0.00,148,1.25673482
0.00,150,1.33881289
0.00,152,1.18187766
0.00,154,1.18187766
0.50,0,1.00000000
0.50,2,0.98644854
0.50,4,0.99028827
0.50,6,1.01992823
0.50,8,1.01523620
0.50,10,1.05722670
0.50,12,1.06988381
0.50,14,1.07800754
0.50,16,1.13950368
0.50,18,1.11078535
0.50,20,1.09988931
0.50,22,1.09814708
0.50,24,1.09392170
0.50,26,1.08905383
0.50,28,1.12998211
0.50,30,1.14792739
0.50,32,1.09499335
0.50,34,1.08353813
0.50,36,1.08502749
0.50,38,1.07607557
0.50,40,1.07496042
0.50,42,1.09903709
0.50,44,1.10364839
0.50,46,1.14973358
0.50,48,1.15898814
0.50,50,1.18380006
0.50,52,1.15738871
0.50,54,1.14573863
0.50,56,1.17688584
0.50,58,1.14308094
0.50,60,1.12408449
0.50,62,1.12994384
0.50,64,1.12310422
0.50,66,1.10015593
0.50,68,1.10077622
0.50,70,1.08847309
0.50,72,1.16599158
0.50,74,1.21211625
0.50,76,1.28705333
0.50,78,1.30827946
0.50,80,1.32826977
0.50,82,1.33132526
0.50,84,1.34475502
0.50,86,1.50096937
0.50,88,1.65455806
0.50,90,1.64230955
0.50,92,1.62434932
0.50,94,1.61518539
0.50,96,1.62560787
0.50,98,1.69854520
0.50,100,1.80563596
0.50,102,1.79953095
0.50,104,1.92840441
0.50,106,1.89892027
0.50,108,1.86220992
0.50,110,1.85708523
0.50,112,1.91620541
0.50,114,1.87536121
0.50,116,1.83108902
0.50,118,1.84212011
0.50,120,1.81806938
0.50,122,1.72789302
0.50,124,1.82824750
0.50,126,1.82860229
0.50,128,1.38621375
0.50,130,1.37396020
0.50,132,1.26047779
0.50,134,1.24025941
0.50,136,1.30002833
0.50,138,1.41164526
0.50,140,1.46161579
0.50,142,1.46998460
0.50,144,1.03929837
0.50,146,1.04286971
0.50,148,1.05794334
0.50,150,1.04459468
0.50,152,1.06320907
0.50,154,1.06320907
0.50,156,1.14578105
0.50,158,1.19983855
0.50,160,1.02520143
0.50,162,1.12569161
0.50,164,1.12715084
0.50,166,1.24542901
0.50,168,1.24542901
0.50,170,1.24542901
0.50,172,1.24542901
0.50,174,1.24542901
0.50,176,1.24542901
0.50,178,1.24542901
0.50,180,1.24542901
0.50,182,0.99691245
0.50,184,0.99691245
0.50,186,0.99691245
0.85,0,1.00000000
0.85,2,0.98901857
0.85,4,0.99501279
0.85,6,1.00235572
0.85,8,0.95558134
0.85,10,0.98664279
0.85,12,0.98723715
0.85,14,0.99290185
0.85,16,0.99918744
0.85,18,1.00510812
0.85,20,1.01307771
0.85,22,1.01307771
0.85,24,1.01881092
0.85,26,1.03373482
0.85,28,1.06368361
0.85,30,1.04370103
0.85,32,1.03810511
0.85,34,1.01409367
0.85,36,1.01409367
0.85,38,1.00448524
0.85,40,1.00785499
0.85,42,1.04562721
0.85,44,1.05024289
0.85,46,1.04920310
0.85,48,1.06975255
0.85,50,1.07112147
0.85,52,1.06870562
0.85,54,1.07051825
0.85,56,1.07115410
0.85,58,1.07522144
0.85,60,1.08946021
0.85,62,1.11269653
0.85,64,1.11529891
0.85,66,1.10990836
0.85,68,1.11528596
0.85,70,1.16828306
0.85,72,1.16707257
0.85,74,1.21817080
0.85,76,1.21352755
0.85,78,1.21281641
0.85,80,1.21687402
0.85,82,1.22135574
0.85,84,1.25489191
0.85,86,1.32995089
0.85,88,1.32236400
0.85,90,1.33916836
0.85,92,1.33535368
0.85,94,1.40688250
0.85,96,1.48118822
0.85,98,1.49636614
0.85,100,1.50000515
0.85,102,1.46179187
0.85,104,1.43827077
0.85,106,1.43567788
0.85,108,1.51734752
0.85,110,1.51878381
0.85,112,1.51723407
0.85,114,1.51723407
0.85,116,1.52882191
0.85,118,1.53491829
0.85,120,1.56551669
0.85,122,1.56841882
0.85,124,1.55945998
0.85,126,1.58971021
0.85,128,1.61178800
0.85,130,1.54980237
0.85,132,1.58022419
0.85,134,1.56635626
0.85,136,1.55419941
0.85,138,1.60312989
0.85,140,1.53683451
0.85,142,1.30721164
0.85,144,1.30721164
0.85,146,1.32495022
0.85,148,1.31132166
0.85,150,1.32754533
0.85,152,1.33765804
0.85,154,1.36976208
0.85,156,1.24625177
0.85,158,1.24577949
0.85,160,1.32705763
0.85,162,1.29123351
0.85,164,1.24495475
0.85,166,1.26041851
0.85,168,1.29885212
0.85,170,1.43494903
0.85,172,1.48171823
0.85,174,1.48171823
0.85,176,1.47686160
0.85,178,1.47686160
0.85,180,1.47686160
0.85,182,1.56994510
0.85,184,1.56994510
0.85,186,1.56994510
0.85,188,1.56994510
0.85,190,1.60481781
0.85,192,1.38428305
0.85,194,1.42780584
0.90,0,1.00000000
0.90,2,0.98901857
0.90,4,0.99501279
0.90,6,1.00235572
0.90,8,0.95558134
0.90,10,0.98664279
0.90,12,0.98723715
0.90,14,1.01327635
0.90,16,0.98271681
0.90,18,0.99314003
0.90,20,1.00110962
0.90,22,1.00110962
0.90,24,1.00684283
0.90,26,1.02176673
0.90,28,1.05171552
0.90,30,1.03143882
0.90,32,1.02619662
0.90,34,1.03015601
0.90,36,1.03015601
0.90,38,1.02054758
0.90,40,1.02391733
0.90,42,1.04225054
0.90,44,1.06183866
0.90,46,1.06079887
0.90,48,1.07735185
0.90,50,1.08197390
0.90,52,1.07960063
0.90,54,1.07883927
0.90,56,1.07281764
0.90,58,1.06838574
0.90,60,1.08028836
0.90,62,1.09927790
0.90,64,1.09927790
0.90,66,1.08672932
0.90,68,1.10001144
0.90,70,1.15300854
0.90,72,1.16878642
0.90,74,1.21988465
0.90,76,1.21089789
0.90,78,1.21698631
0.90,80,1.22529944
0.90,82,1.23652358
0.90,84,1.25597674
0.90,86,1.27320110
0.90,88,1.33546749
0.90,90,1.34259995
0.90,92,1.33689392
0.90,94,1.37428817
0.90,96,1.37901554
0.90,98,1.38506232
0.90,100,1.55603126
0.90,102,1.58033851
0.90,104,1.56056928
0.90,106,1.52595673
0.90,108,1.53169451
0.90,110,1.52895562
0.90,112,1.60459206
0.90,114,1.60459206
0.90,116,1.59768585
0.90,118,1.58422591
0.90,120,1.63411762
0.90,122,1.63679789
0.90,124,1.63844139
0.90,126,1.63844139
0.90,128,1.67691750
0.90,130,1.70053462
0.90,132,1.74074027
0.90,134,1.79782213
0.90,136,1.74318476
0.90,138,1.65098283
0.90,140,1.65098283
0.90,142,1.65098283
0.90,144,1.65098283
0.90,146,1.82071896
0.90,148,1.74341830
0.90,150,1.52383924
0.90,152,1.40144984
0.90,154,1.39201482
0.90,156,1.39201482
0.90,158,1.37645109
0.90,160,1.38950568
0.90,162,1.47271596
0.90,164,1.22961720
0.90,166,1.22625700
0.90,168,1.23514327
0.90,170,1.25138269
0.90,172,1.40404668
0.90,174,1.46139954
0.90,176,1.45654291
0.90,178,1.45654291
0.90,180,1.45654291
0.90,182,1.52005320
0.90,184,1.55831705
0.90,186,1.55831705
0.90,188,1.55831705
0.90,190,1.59318976
0.90,192,1.37099385
0.90,194,1.42780584
1.00,0,1.00000000
1.00,2,0.98545005
1.00,4,0.99014064
1.00,6,0.99748357
1.00,8,0.95070919
1.00,10,0.98177064
1.00,12,0.98672051
1.00,14,1.00352228
1.00,16,0.96739048
1.00,18,0.97962661
1.00,20,0.98584047
1.00,22,0.98721780
1.00,24,0.99240155
1.00,26,0.99471881
1.00,28,1.02466760
1.00,30,1.00512367
1.00,32,1.01440399
1.00,34,1.03206671
1.00,36,1.02396167
1.00,38,1.01435324
1.00,40,1.01733303
1.00,42,1.03102180
1.00,44,1.03504881
1.00,46,1.03400902
1.00,48,1.06008194
1.00,50,1.06218321
1.00,52,1.06218321
1.00,54,1.06215024
1.00,56,1.06554253
1.00,58,1.06409897
1.00,60,1.07599841
1.00,62,1.08969463
1.00,64,1.08969463
1.00,66,1.07580545
1.00,68,1.08200153
1.00,70,1.08658323
1.00,72,1.11896059
1.00,74,1.17438032
1.00,76,1.14881435
1.00,78,1.15750505
1.00,80,1.17373667
1.00,82,1.17533842
1.00,84,1.20117747
1.00,86,1.21840184
1.00,88,1.27724718
1.00,90,1.26223262
1.00,92,1.27741282
1.00,94,1.32532340
1.00,96,1.33250828
1.00,98,1.34773542
1.00,100,1.50477641
1.00,102,1.50894497
1.00,104,1.49832079
1.00,106,1.49659682
1.00,108,1.50198846
1.00,110,1.50215364
1.00,112,1.57791442
1.00,114,1.57791442
1.00,116,1.56886900
1.00,118,1.52854316
1.00,120,1.54522158
1.00,122,1.54501198
1.00,124,1.54166698
1.00,126,1.56607761
1.00,128,1.56933121
1.00,130,1.59184347
1.00,132,1.61931573
1.00,134,1.62004644
1.00,136,1.60171104
1.00,138,1.68329027
1.00,140,1.56093028
1.00,142,1.56093028
1.00,144,1.58990667
1.00,146,1.60683271
1.00,148,1.60683271
1.00,150,1.66795638
1.00,152,1.30863679
1.00,154,1.30863679
1.00,156,1.30863679
1.00,158,1.31595213
1.00,160,1.32667922
1.00,162,1.39650140
1.00,164,1.19690893
1.00,166,1.20632464
1.00,168,1.17785962
1.00,170,1.15366991
1.00,172,1.23418099
1.00,174,1.23418099
1.00,176,1.27997226
1.00,178,1.26498403
1.00,180,1.29188152
1.00,182,1.35719796
1.00,184,1.37311524
1.00,186,1.37311524
1.00,188,1.35495372
1.00,190,1.37920013
1.00,192,1.25582004
1.00,194,1.25119053
1.00,196,0.80660488
1.00,198,0.80660488
1.00,200,0.80660488
1.50,0,1.00000000
1.50,2,0.99440986
1.50,4,0.99463109
1.50,6,1.00197402
1.50,8,0.99804302
1.50,10,1.00467887
1.50,12,1.00132389
1.50,14,1.00027038
1.50,16,1.00376487
1.50,18,1.00376487
1.50,20,1.01325821
1.50,22,1.01836537
1.50,24,1.06039427
1.50,26,1.04673340
1.50,28,1.06852156
1.50,30,1.08045450
1.50,32,1.10898234
1.50,34,1.07985806
1.50,36,1.07598125
1.50,38,1.06794344
1.50,40,1.06794344
1.50,42,1.06475112
1.50,44,1.08802457
1.50,46,1.10799040
1.50,48,1.10672249
1.50,50,1.10341195
1.50,52,1.10736953
1.50,54,1.10445621
1.50,56,1.13125131
1.50,58,1.12867633
1.50,60,1.12867633
1.50,62,1.12082954
1.50,64,1.12082954
1.50,66,1.12082954
1.50,68,1.11880185
1.50,70,1.11624274
1.50,72,1.11624274
1.50,74,1.11424959
1.50,76,1.11432347
1.50,78,1.14181991
1.50,80,1.15127221
1.50,82,1.13484129
1.50,84,1.14840518
1.50,86,1.16210941
1.50,88,1.16211264
1.50,90,1.16076901
1.50,92,1.19770057
1.50,94,1.24875519
1.50,96,1.25330872
1.50,98,1.29673520
1.50,100,1.27675314
1.50,102,1.28075761
1.50,104,1.35171476
1.50,106,1.35591042
1.50,108,1.37110934
1.50,110,1.42157079
1.50,112,1.43583315
1.50,114,1.43726867
1.50,116,1.49784189
1.50,118,1.52523720
1.50,120,1.52924886
1.50,122,1.54620201
1.50,124,1.56260452
1.50,126,1.56260452
1.50,128,1.60608454
1.50,130,1.60608454
1.50,132,1.60608454
1.50,134,1.62958411
1.50,136,1.63084644
1.50,138,1.63084644
1.50,140,1.60187976
1.50,142,1.60292759
1.50,144,1.60292759
1.50,146,1.62418579
1.50,148,1.64089692
1.50,150,1.56563788
1.50,152,1.45183573
1.50,154,1.45183573
1.50,156,1.45487755
1.50,158,1.45296631
1.50,160,1.44212742
1.50,162,1.46171503
1.50,164,1.33991940
1.50,166,1.34004401
1.50,168,1.35749665
1.50,170,1.37037514
1.50,172,1.37037514
1.50,174,1.10168893
1.50,176,1.15199146
1.50,178,1.04865639
1.50,180,1.04393986
1.50,182,1.02077467
1.50,184,1.02077467
1.50,186,1.02461340
1.50,188,0.97017766
1.50,190,0.97017598
1.50,192,0.98135768
1.50,194,0.97512340
1.50,196,0.99631006
1.50,198,0.99003004
1.50,200,0.99003004
1.50,202,0.95681472
1.50,204,0.98155716
1.50,206,0.91811417
1.50,208,0.92702094
1.50,210,0.92702094
1.50,212,0.91058309
1.50,214,0.96049002
1.50,216,0.91991563
1.50,218,0.84695428
1.50,220,0.82618011
1.50,222,0.83671195
1.50,224,0.83671195
1.50,226,0.83671195
1.50,228,0.83671195
1.50,230,0.76702654
1.50,232,0.76702654