pct,pass,total,pass_pct,sharpe,ret_pct,dd_pct,trades,base5_equity
0,56,63,88.89,6.9414,48.84,0.94,689,17.157198
1,56,63,88.89,6.9414,182.43,2.91,689,314.113297
2,56,63,88.89,6.9414,182.43,2.91,689,314.113297
3,56,63,88.89,6.9414,182.43,2.91,689,314.113297
4,56,63,88.89,6.9414,182.43,2.91,689,314.113297
5,56,63,88.89,6.9414,182.43,2.91,689,314.113297
6,56,63,88.89,6.9414,182.43,2.91,689,314.113297
7,56,63,88.89,6.9414,182.43,2.91,689,314.113297
8,56,63,88.89,6.9414,182.43,2.91,689,314.113297
9,56,63,88.89,6.9414,182.43,2.91,689,314.113297
10,56,63,88.89,6.9414,182.43,2.91,689,314.113297
11,56,63,88.89,6.9414,182.43,2.91,689,314.113297
12,56,63,88.89,6.9414,182.43,2.91,689,314.113297
13,56,63,88.89,6.9414,182.43,2.91,689,314.113297
14,56,63,88.89,6.9414,182.43,2.91,689,314.113297
15,56,63,88.89,6.9414,182.43,2.91,689,314.113297
16,56,63,88.89,6.9414,182.43,2.91,689,314.113297
17,56,63,88.89,6.9414,182.43,2.91,689,314.113297
18,56,63,88.89,6.9414,182.43,2.91,689,314.113297
19,56,63,88.89,6.9414,182.43,2.91,689,314.113297
20,56,63,88.89,6.9414,182.43,2.91,689,314.113297
21,56,63,88.89,6.9414,182.43,2.91,689,314.113297
22,56,63,88.89,6.9414,182.43,2.91,689,314.113297
23,56,63,88.89,6.9414,182.43,2.91,689,314.113297
24,56,63,88.89,6.9414,182.43,2.91,689,314.113297
25,56,63,88.89,6.9414,182.43,2.91,689,314.113297
26,56,63,88.89,6.9414,182.43,2.91,689,314.113297
27,56,63,88.89,6.9414,182.43,2.91,689,314.113297
28,56,63,88.89,6.9414,182.43,2.91,689,314.113297
29,56,63,88.89,6.9414,182.43,2.91,689,314.113297
30,56,63,88.89,6.9414,182.43,2.91,689,314.113297
31,56,63,88.89,6.9414,182.43,2.91,689,314.113297
32,56,63,88.89,6.9414,182.43,2.91,689,314.113297
33,56,63,88.89,6.9414,182.43,2.91,689,314.113297
34,56,63,88.89,6.9414,182.43,2.91,689,314.113297
35,56,63,88.89,6.9414,182.43,2.91,689,314.113297
36,56,63,88.89,6.9414,182.43,2.91,689,314.113297
37,56,63,88.89,6.9414,182.43,2.91,689,314.113297
38,56,63,88.89,6.9414,182.43,2.91,689,314.113297
39,56,63,88.89,6.9414,182.43,2.91,689,314.113297
40,56,63,88.89,6.9414,182.43,2.91,689,314.113297
41,56,63,88.89,6.9414,182.43,2.91,689,314.113297
42,56,63,88.89,6.9414,182.43,2.91,689,314.113297
43,56,63,88.89,6.9414,182.43,2.91,689,314.113297
44,56,63,88.89,6.9414,182.43,2.91,689,314.113297
45,56,63,88.89,6.9414,182.43,2.91,689,314.113297
46,56,63,88.89,6.9414,182.43,2.91,689,314.113297
47,56,63,88.89,6.9414,182.43,2.91,689,314.113297
48,56,63,88.89,6.9414,182.43,2.91,689,314.113297
49,56,63,88.89,6.9414,182.43,2.91,689,314.113297
50,56,63,88.89,6.9414,182.43,2.91,689,314.113297
51,56,63,88.89,6.9414,182.43,2.91,689,314.113297
52,56,63,88.89,6.9414,182.43,2.91,689,314.113297
53,56,63,88.89,6.9414,182.43,2.91,689,314.113297
54,56,63,88.89,6.9414,182.43,2.91,689,314.113297
55,56,63,88.89,6.9414,182.43,2.91,689,314.113297
56,56,63,88.89,6.9414,182.43,2.91,689,314.113297
57,56,63,88.89,6.9414,182.43,2.91,689,314.113297
58,56,63,88.89,6.9414,182.43,2.91,689,314.113297
59,56,63,88.89,6.9414,182.43,2.91,689,314.113297
60,56,63,88.89,6.9414,182.43,2.91,689,314.113297
61,56,63,88.89,6.9414,182.43,2.91,689,314.113297
62,56,63,88.89,6.9414,182.43,2.91,689,314.113297
63,56,63,88.89,6.9414,182.43,2.91,689,314.113297
64,56,63,88.89,6.9414,182.43,2.91,689,314.113297
65,56,63,88.89,6.9414,182.43,2.91,689,314.113297
66,56,63,88.89,6.9414,182.43,2.91,689,314.113297
67,56,63,88.89,6.9414,182.43,2.91,689,314.113297
68,56,63,88.89,6.9414,182.43,2.91,689,314.113297
69,56,63,88.89,6.9414,182.43,2.91,689,314.113297
70,56,63,88.89,6.9414,182.43,2.91,689,314.113297
71,56,63,88.89,6.9414,182.43,2.91,689,314.113297
72,56,63,88.89,6.9414,182.43,2.91,689,314.113297
73,56,63,88.89,6.9414,182.43,2.91,689,314.113297
74,56,63,88.89,6.9414,182.43,2.91,689,314.113297
75,56,63,88.89,6.9414,182.43,2.91,689,314.113297
76,56,63,88.89,6.9414,182.43,2.91,689,314.113297
77,56,63,88.89,6.9414,182.43,2.91,689,314.113297
78,56,63,88.89,6.9414,182.43,2.91,689,314.113297
79,56,63,88.89,6.9414,182.43,2.91,689,314.113297
80,56,63,88.89,6.9414,182.43,2.91,689,314.113297
81,56,63,88.89,6.9414,182.43,2.91,689,314.113297
82,56,63,88.89,6.9414,182.43,2.91,689,314.113297
83,56,63,88.89,6.9414,182.43,2.91,689,314.113297
84,56,63,88.89,6.9414,182.43,2.91,689,314.113297
85,56,63,88.89,6.9414,182.43,2.91,689,314.113297
86,56,63,88.89,6.9414,182.43,2.91,689,314.113297
87,56,63,88.89,6.9414,182.43,2.91,689,314.113297
88,56,63,88.89,6.9414,182.43,2.91,689,314.113297
89,56,63,88.89,6.9414,182.43,2.91,689,314.113297
90,56,63,88.89,6.9414,182.43,2.91,689,314.113297
91,56,63,88.89,6.9414,182.43,2.91,689,314.113297
92,56,63,88.89,6.9414,182.43,2.91,689,314.113297
93,56,63,88.89,6.9414,182.43,2.91,689,314.113297
94,56,63,88.89,6.9414,182.43,2.91,689,314.113297
95,56,63,88.89,6.9414,182.43,2.91,689,314.113297
96,56,63,88.89,6.9414,182.43,2.91,689,314.113297
97,56,63,88.89,6.9414,182.43,2.91,689,314.113297
98,56,63,88.89,6.9414,182.43,2.91,689,314.113297
99,56,63,88.89,6.9414,182.43,2.91,689,314.113297
100,56,63,88.89,6.9414,182.43,2.91,689,314.113297
