atr_period,bar,equity
95,0,1.000000
95,1,1.000000
95,2,1.000000
95,3,1.117681
95,4,1.342461
95,5,1.342461
95,6,1.342461
95,7,1.440978
95,8,1.435618
95,9,1.453692
95,10,1.453692
95,11,1.453692
95,12,1.453692
95,13,1.453692
95,14,1.319937
95,15,1.179958
95,16,1.179958
95,17,1.000316
95,18,1.000316
95,19,0.942783
95,20,0.942804
95,21,0.942804
95,22,0.942804
95,23,0.942804
95,24,0.942804
95,25,0.942804
95,26,0.948341
95,27,1.260098
95,28,1.260098
95,29,1.260098
95,30,1.260098
95,31,1.157852
95,32,1.157852
95,33,1.157852
95,34,1.062275
95,35,1.062275
95,36,1.062275
95,37,1.062275
95,38,1.061438
95,39,1.081333
95,40,1.129612
95,41,1.126771
95,42,1.126771
95,43,1.126771
95,44,1.126771
95,45,1.126771
95,46,1.126771
95,47,1.105454
95,48,1.041758
95,49,0.973998
95,50,0.887696
95,51,0.888642
95,52,0.878883
95,53,0.878883
95,54,0.878883
95,55,0.878883
95,56,1.145962
95,57,1.145962
95,58,1.099938
95,59,1.624560
95,60,1.624560
95,61,1.624560
95,62,2.637186
95,63,2.637186
95,64,2.647848
95,65,2.683619
95,66,4.620469
95,67,4.620469
95,68,5.751086
95,69,5.850218
95,70,5.517052
95,71,5.814140
95,72,3.573412
95,73,3.573412
95,74,3.573412
95,75,3.527659
95,76,3.770190
95,77,3.214072
95,78,2.834900
95,79,2.157482
95,80,2.913782
95,81,2.867243
95,82,2.254261
95,83,2.131192
95,84,2.025345
95,85,2.025345
95,86,2.043963
95,87,1.940862
95,88,1.795308
95,89,1.795308
95,90,1.889241
95,91,1.740431
95,92,2.108379
95,93,2.191856
95,94,2.227463
95,95,2.438420
95,96,2.399184
95,97,2.386010
95,98,2.300662
95,99,2.300662
95,100,3.110825
95,101,3.682000
95,102,3.682000
95,103,4.177916
95,104,4.005431
95,105,4.043619
95,106,4.043619
95,107,4.146220
95,108,4.136277
95,109,4.036450
95,110,3.698985
95,111,4.534353
95,112,4.534353
95,113,4.534353
95,114,4.639272
95,115,4.576783
95,116,4.742692
95,117,4.677785
95,118,8.462672
95,119,8.580561
95,120,8.788982
95,121,8.940387
95,122,8.638169
95,123,8.674555
95,124,8.408856
95,125,7.574614
95,126,9.191984
95,127,9.963304
95,128,10.575049
95,129,11.956045
95,130,13.147711
95,131,17.960086
95,132,16.347535
95,133,15.856971
95,134,19.231160
95,135,18.398540
95,136,18.495602
95,137,18.248918
95,138,18.264169
95,139,15.641239
95,140,14.483936
95,141,22.678890
95,142,22.981914
95,143,24.051378
95,144,24.337690
95,145,23.721459
95,146,23.721459
95,147,21.777819
95,148,21.554434
95,149,21.554434
95,150,21.554434
95,151,21.554434
95,152,21.778281
95,153,20.515386
95,154,20.515386
95,155,20.515386
95,156,20.515386
95,157,20.151862
95,158,20.151862
95,159,27.901961
95,160,27.901961
95,161,24.736212
95,162,24.156760
95,163,24.156760
95,164,23.495839
95,165,23.035274
95,166,37.391033
95,167,37.391033
95,168,37.965925
95,169,37.965925
95,170,43.866603
95,171,42.842000
95,172,44.192708
95,173,43.514350
95,174,43.235127
95,175,43.984196
95,176,54.536565
95,177,59.147666
95,178,61.289631
95,179,59.331669
95,180,79.921338
95,181,71.256821
95,182,71.256821
95,183,71.256821
95,184,70.882841
95,185,62.332596
95,186,62.332596
95,187,62.332596
95,188,62.332596
95,189,74.879871
95,190,76.985195
95,191,86.136164
95,192,86.373266
95,193,79.667117
95,194,99.216443
95,195,99.216443
95,196,99.216443
95,197,98.853872
95,198,112.879885
95,199,111.308281
95,200,111.758328
95,201,105.269124
95,202,94.916709
95,203,98.886468
95,204,94.640872
95,205,143.490305
95,206,134.672362
95,207,130.618338
95,208,130.618338
95,209,132.123168
95,210,149.765628
95,211,131.288200
95,212,119.518964
95,213,118.604250
95,214,124.158479
95,215,121.742739
95,216,119.594452
95,217,119.594452
95,218,115.359978
95,219,121.034355
95,220,142.047009
95,221,148.936138
95,222,151.760753
95,223,159.360253
95,224,148.554828
95,225,175.807469
95,226,166.309191
95,227,166.309191
95,228,164.343064
95,229,166.700534
95,230,169.237387
95,231,165.886449
95,232,140.725510
95,233,132.277438
95,234,132.277438
95,235,135.699507
95,236,132.813612
95,237,139.631718
95,238,124.433911
95,239,124.433911
95,240,120.382836
95,241,204.271601
95,242,295.122377
95,243,301.041522
95,244,290.501990
95,245,290.501990
95,246,293.619565
95,247,253.939304
95,248,248.170654
95,249,251.256952
95,250,250.653808
95,251,247.734448
100,0,1.000000
100,1,1.000000
100,2,1.000000
100,3,1.117681
100,4,1.342461
100,5,1.342461
100,6,1.342461
100,7,1.440978
100,8,1.435618
100,9,1.453692
100,10,1.453692
100,11,1.453692
100,12,1.453692
100,13,1.453692
100,14,1.319937
100,15,1.179958
100,16,1.179958
100,17,1.000316
100,18,1.000316
100,19,0.942783
100,20,0.942804
100,21,0.942804
100,22,0.942804
100,23,0.942804
100,24,0.942804
100,25,0.942804
100,26,0.942804
100,27,1.252742
100,28,1.171649
100,29,1.171649
100,30,1.171649
100,31,1.076580
100,32,1.076580
100,33,1.076580
100,34,1.076456
100,35,1.076456
100,36,1.076456
100,37,1.076456
100,38,1.075608
100,39,1.095769
100,40,1.144692
100,41,1.141814
100,42,1.141814
100,43,1.141814
100,44,1.141814
100,45,1.141814
100,46,1.141814
100,47,1.120212
100,48,1.055666
100,49,0.987001
100,50,0.913633
100,51,0.914607
100,52,0.904563
100,53,0.904563
100,54,0.904563
100,55,0.904563
100,56,1.179445
100,57,1.179445
100,58,1.132077
100,59,1.672027
100,60,1.672027
100,61,1.672027
100,62,2.714241
100,63,2.714241
100,64,2.725215
100,65,2.762030
100,66,4.755472
100,67,4.755472
100,68,5.919125
100,69,6.021153
100,70,5.678252
100,71,5.984021
100,72,3.677822
100,73,3.677822
100,74,3.677822
100,75,3.630733
100,76,3.880350
100,77,3.307983
100,78,2.917731
100,79,2.220520
100,80,2.998918
100,81,2.951019
100,82,2.320127
100,83,2.193462
100,84,2.084523
100,85,2.084523
100,86,2.103685
100,87,1.997571
100,88,1.847764
100,89,1.847764
100,90,1.944442
100,91,1.791284
100,92,2.169983
100,93,2.255899
100,94,2.292546
100,95,2.509668
100,96,2.469285
100,97,2.455726
100,98,2.367885
100,99,2.367885
100,100,3.201719
100,101,3.789583
100,102,3.789583
100,103,4.299988
100,104,4.122464
100,105,4.161768
100,106,3.912801
100,107,4.012082
100,108,3.862451
100,109,3.769232
100,110,3.454108
100,111,4.234173
100,112,4.234173
100,113,4.234173
100,114,4.332147
100,115,4.273794
100,116,4.428720
100,117,4.368110
100,118,7.902433
100,119,8.012517
100,120,8.207141
100,121,8.348523
100,122,8.066312
100,123,8.100289
100,124,7.852180
100,125,7.073166
100,126,8.093929
100,127,8.773109
100,128,9.311776
100,129,10.527801
100,130,11.577113
100,131,15.814612
100,132,14.394693
100,133,13.962731
100,134,16.933846
100,135,16.200690
100,136,16.286157
100,137,16.068940
100,138,16.082370
100,139,13.772770
100,140,12.753715
100,141,19.969718
100,142,20.236543
100,143,21.178251
100,144,21.430361
100,145,20.887743
100,146,20.887743
100,147,19.176286
100,148,18.979587
100,149,18.979587
100,150,18.979587
100,151,18.979587
100,152,19.176693
100,153,18.064661
100,154,18.064661
100,155,18.064661
100,156,18.064661
100,157,17.744563
100,158,17.744563
100,159,24.568851
100,160,24.568851
100,161,21.781276
100,162,21.271044
100,163,21.271044
100,164,20.689075
100,165,20.283529
100,166,32.647599
100,167,32.647599
100,168,35.192617
100,169,35.192617
100,170,40.662266
100,171,39.712508
100,172,40.964551
100,173,40.335745
100,174,40.076918
100,175,40.771270
100,176,50.552817
100,177,54.827090
100,178,56.812590
100,179,54.997651
100,180,74.083301
100,181,66.051704
100,182,66.051704
100,183,66.051704
100,184,65.705041
100,185,57.779369
100,186,57.779369
100,187,57.779369
100,188,57.779369
100,189,69.410099
100,190,71.361635
100,191,79.844151
100,192,80.063933
100,193,73.847651
100,194,91.968951
100,195,91.968951
100,196,91.968951
100,197,91.632864
100,198,104.634315
100,199,103.177514
100,200,103.594686
100,201,97.579500
100,202,87.983301
100,203,91.663080
100,204,87.727613
100,205,133.008728
100,206,124.834912
100,207,121.077023
100,208,121.077023
100,209,122.471929
100,210,138.825655
100,211,121.697953
100,212,110.788428
100,213,109.940531
100,214,115.089039
100,215,112.849762
100,216,110.858402
100,217,110.858402
100,218,106.933245
100,219,112.193124
100,220,131.670861
100,221,138.056757
100,222,155.037926
100,223,154.841760
100,224,144.342712
100,225,170.822633
100,226,161.593668
100,227,157.319831
100,228,155.459977
100,229,161.415639
100,230,159.115454
100,231,155.964932
100,232,132.308846
100,233,124.366045
100,234,124.366045
100,235,127.583443
100,236,124.870151
100,237,131.280473
100,238,116.991632
100,239,116.991632
100,240,113.182848
100,241,192.054304
100,242,270.152463
100,243,275.570797
100,244,265.923001
100,245,265.923001
100,246,268.776802
100,247,232.453835
100,248,227.173263
100,249,229.998434
100,250,229.446321
100,251,226.773964
90,0,1.000000
90,1,1.000000
90,2,1.000000
90,3,1.117681
90,4,1.169847
90,5,1.169847
90,6,1.169847
90,7,1.169847
90,8,1.549371
90,9,1.568876
90,10,1.568876
90,11,1.568876
90,12,1.568876
90,13,1.568876
90,14,1.424524
90,15,1.273453
90,16,1.273453
90,17,1.079577
90,18,1.079577
90,19,1.017485
90,20,1.017508
90,21,1.017508
90,22,1.017508
90,23,1.017508
90,24,1.017508
90,25,1.017508
90,26,1.023483
90,27,1.359943
90,28,1.359943
90,29,1.359943
90,30,1.359943
90,31,1.249595
90,32,1.249595
90,33,1.249595
90,34,1.146445
90,35,1.146445
90,36,1.146445
90,37,1.146445
90,38,1.145542
90,39,1.167014
90,40,1.219118
90,41,1.216052
90,42,1.216052
90,43,1.216052
90,44,1.216052
90,45,1.216052
90,46,1.216052
90,47,1.193045
90,48,1.124303
90,49,1.051174
90,50,0.958034
90,51,0.959055
90,52,0.948523
90,53,0.948523
90,54,0.948523
90,55,0.948523
90,56,1.236763
90,57,1.236763
90,58,1.187093
90,59,1.753283
90,60,1.753283
90,61,1.753283
90,62,2.846146
90,63,2.846146
90,64,2.857653
90,65,2.896258
90,66,4.986576
90,67,4.986576
90,68,5.157901
90,69,5.471197
90,70,5.051035
90,71,5.323029
90,72,3.271572
90,73,3.271572
90,74,3.271572
90,75,3.229684
90,76,3.451729
90,77,2.942585
90,78,2.595440
90,79,1.975243
90,80,2.667659
90,81,2.625051
90,82,2.153965
90,83,1.868787
90,84,1.775972
90,85,1.775972
90,86,1.792298
90,87,1.701891
90,88,1.574258
90,89,1.574258
90,90,1.656626
90,91,1.526139
90,92,1.848782
90,93,1.921981
90,94,1.953204
90,95,2.138187
90,96,2.103782
90,97,2.092230
90,98,2.017391
90,99,2.017391
90,100,2.727801
90,101,3.228649
90,102,3.228649
90,103,3.663505
90,104,3.512258
90,105,3.545744
90,106,3.545744
90,107,3.635712
90,108,3.626993
90,109,3.539458
90,110,3.243543
90,111,3.976056
90,112,3.976056
90,113,3.976056
90,114,4.068057
90,115,4.160743
90,116,4.160743
90,117,4.103800
90,118,7.424266
90,119,7.527689
90,120,7.710536
90,121,7.843363
90,122,7.578228
90,123,7.610149
90,124,7.377053
90,125,6.645176
90,126,8.064088
90,127,8.740764
90,128,9.277445
90,129,9.373719
90,130,11.546057
90,131,15.772190
90,132,14.356079
90,133,13.925276
90,134,16.888421
90,135,16.479000
90,136,16.565936
90,137,16.344988
90,138,14.541560
90,139,12.453236
90,140,11.531815
90,141,12.169132
90,142,12.331730
90,143,12.402861
90,144,12.402861
90,145,12.402861
90,146,12.402861
90,147,11.386621
90,148,10.983190
90,149,10.983190
90,150,10.983190
90,151,10.983190
90,152,11.097253
90,153,10.453737
90,154,10.453737
90,155,10.453737
90,156,10.453737
90,157,10.268502
90,158,10.268502
90,159,14.217610
90,160,14.217610
90,161,12.604484
90,162,12.309221
90,163,12.309221
90,164,11.972445
90,165,11.666484
90,166,18.937127
90,167,18.543694
90,168,18.302547
90,169,18.302547
90,170,21.147136
90,171,20.653197
90,172,21.165550
90,173,20.840659
90,174,20.706928
90,175,21.065685
90,176,25.537595
90,177,27.696815
90,178,28.699824
90,179,27.782977
90,180,37.424411
90,181,33.367116
90,182,33.367116
90,183,33.367116
90,184,33.191994
90,185,29.188208
90,186,29.188208
90,187,29.188208
90,188,29.188208
90,189,35.063665
90,190,36.049516
90,191,40.334600
90,192,40.445626
90,193,37.305368
90,194,46.459644
90,195,46.459644
90,196,46.459644
90,197,46.289864
90,198,52.857763
90,199,52.121835
90,200,52.332577
90,201,49.293906
90,202,44.446226
90,203,46.305128
90,204,44.317061
90,205,67.191569
90,206,63.062430
90,207,71.323621
90,208,79.826200
90,209,72.449050
90,210,72.712075
90,211,63.741177
90,212,58.027145
90,213,57.583046
90,214,60.279657
90,215,59.106801
90,216,58.063795
90,217,58.063795
90,218,56.007934
90,219,58.762876
90,220,68.964641
90,221,72.309353
90,222,73.680720
90,223,77.370320
90,224,72.124225
90,225,85.355539
90,226,80.744070
90,227,80.744070
90,228,79.789504
90,229,80.934069
90,230,82.165726
90,231,80.538826
90,232,68.323045
90,233,64.221458
90,234,64.221458
90,235,65.882892
90,236,64.481774
90,237,67.792003
90,238,60.413380
90,239,60.413380
90,240,58.446560
90,241,99.175039
90,242,143.283613
90,243,145.827020
90,244,140.721583
90,245,140.721583
90,246,142.231762
90,247,123.010313
90,248,109.254841
90,249,110.613556
90,250,110.348027
90,251,109.062805
25,0,1.000000
25,1,1.000000
25,2,1.000000
25,3,1.117681
25,4,1.117681
25,5,1.117681
25,6,1.117681
25,7,1.117681
25,8,1.117681
25,9,1.131752
25,10,1.131752
25,11,1.131752
25,12,1.131752
25,13,1.131752
25,14,1.027619
25,15,1.071443
25,16,1.071443
25,17,1.071443
25,18,1.071443
25,19,1.117689
25,20,1.072854
25,21,1.157474
25,22,1.157474
25,23,1.402268
25,24,1.402268
25,25,1.402268
25,26,1.402268
25,27,1.402268
25,28,1.402268
25,29,1.402268
25,30,1.415081
25,31,1.314699
25,32,1.307472
25,33,1.307472
25,34,1.307472
25,35,1.307472
25,36,1.307472
25,37,1.307472
25,38,1.306442
25,39,1.330930
25,40,1.316484
25,41,1.316484
25,42,1.316484
25,43,1.384625
25,44,1.277716
25,45,1.511310
25,46,1.511310
25,47,1.482717
25,48,1.482717
25,49,1.529871
25,50,1.416149
25,51,1.416149
25,52,1.416149
25,53,1.416149
25,54,1.416149
25,55,1.416149
25,56,1.161906
25,57,1.116650
25,58,1.116650
25,59,1.649242
25,60,2.443337
25,61,2.443337
25,62,2.439773
25,63,2.439773
25,64,2.449637
25,65,2.449637
25,66,3.274389
25,67,3.274389
25,68,3.274389
25,69,3.414424
25,70,3.414424
25,71,2.877578
25,72,2.877578
25,73,2.738157
25,74,2.355634
25,75,2.325474
25,76,2.325474
25,77,2.325474
25,78,2.325474
25,79,1.778693
25,80,1.778693
25,81,1.778693
25,82,1.685383
25,83,1.685383
25,84,1.685383
25,85,1.685383
25,86,1.685383
25,87,1.685383
25,88,1.649908
25,89,1.488188
25,90,1.488188
25,91,1.430673
25,92,1.430673
25,93,1.684275
25,94,1.684275
25,95,1.684275
25,96,1.684275
25,97,1.791829
25,98,1.791829
25,99,1.619987
25,100,1.203864
25,101,1.928622
25,102,1.928622
25,103,1.928622
25,104,1.990715
25,105,1.990715
25,106,1.871626
25,107,1.871626
25,108,1.871626
25,109,1.853982
25,110,1.853982
25,111,2.130085
25,112,2.515232
25,113,2.515232
25,114,2.095342
25,115,2.095342
25,116,2.095342
25,117,2.095342
25,118,2.095342
25,119,2.203031
25,120,4.364025
25,121,4.364025
25,122,4.364025
25,123,3.799323
25,124,3.799323
25,125,4.153933
25,126,4.153933
25,127,4.153933
25,128,4.153933
25,129,4.153933
25,130,4.153933
25,131,4.153933
25,132,4.153933
25,133,4.352637
25,134,7.344960
25,135,11.362851
25,136,11.362851
25,137,11.362851
25,138,10.100686
25,139,10.100686
25,140,10.100686
25,141,9.537477
25,142,9.537477
25,143,9.537477
25,144,8.728132
25,145,8.728132
25,146,9.254614
25,147,9.561498
25,148,9.561498
25,149,9.561498
25,150,9.395689
25,151,9.395689
25,152,9.395689
25,153,9.395689
25,154,9.395689
25,155,8.285376
25,156,8.285376
25,157,6.500518
25,158,6.500518
25,159,6.865230
25,160,6.865230
25,161,6.674865
25,162,6.674865
25,163,5.713054
25,164,5.713054
25,165,5.713054
25,166,6.484128
25,167,11.511276
25,168,9.823281
25,169,9.823281
25,170,12.302940
25,171,12.015577
25,172,8.269179
25,173,8.269179
25,174,8.015233
25,175,7.336276
25,176,8.184711
25,177,8.120209
25,178,8.077908
25,179,8.077908
25,180,9.095786
25,181,8.113825
25,182,8.113825
25,183,8.113825
25,184,8.071241
25,185,7.097648
25,186,7.097648
25,187,7.097648
25,188,7.097648
25,189,8.526372
25,190,8.526372
25,191,7.114294
25,192,7.114294
25,193,7.114294
25,194,13.266105
25,195,13.266105
25,196,13.266105
25,197,13.135714
25,198,15.229770
25,199,15.229770
25,200,15.229770
25,201,15.229770
25,202,15.229770
25,203,14.400922
25,204,14.400922
25,205,14.400922
25,206,14.400922
25,207,12.358305
25,208,12.358305
25,209,12.499836
25,210,12.499836
25,211,17.546229
25,212,17.546229
25,213,17.546229
25,214,17.546229
25,215,19.926487
25,216,19.926487
25,217,19.926487
25,218,19.926487
25,219,19.029601
25,220,22.144424
25,221,21.415059
25,222,21.415059
25,223,21.415059
25,224,21.112656
25,225,21.112656
25,226,23.673424
25,227,23.673424
25,228,23.673424
25,229,29.112038
25,230,28.080078
25,231,28.080078
25,232,23.821013
25,233,23.821013
25,234,23.821013
25,235,23.821013
25,236,23.821013
25,237,23.821013
25,238,21.231324
25,239,21.231324
25,240,20.540116
25,241,20.540116
25,242,20.540116
25,243,30.250520
25,244,28.517821
25,245,28.517821
25,246,28.517821
25,247,28.517821
25,248,27.986548
25,249,27.986548
25,250,27.986548
25,251,27.986548
